ecg
0.008941
-0.002384
0.011868
0.027729
-0.003796
-0.003691
0.029054
0.014547
-0.007613
0.010709
-0.007294
-0.007231
0.005612
-0.033078
-0.029583
-0.00855
-0.016556
0.007436
-0.01446
-0.023432
0.028476
-0.001866
0.003518
-0.023238
-0.007287
0.004613
-0.017997
0.009588
-0.007881
-0.002216
-0.007692
0.036584
0.003105
-0.015587
0.018362
-0.018314
0.007525
-0.031405
-0.019934
0.007621
0.017474
0.007371
0.002309
-0.000926
-0.022015
-0.008255
-0.003485
0.023939
0.011199
-0.026617
0.011056
-0.001606
-0.006755
0.016544
0.024195
0.022504
-0.009262
0.000382
0.012014
0.023715
-0.002367
0.00302
-0.013449
-0.014963
0.021297
0.031188
0.005582
0.025045
0.013594
-0.004424
0.013796
0.035078
0.006852
0.035763
-0.039453
0.022599
0.009475
0.002628
0.009765
-0.027561
0.004364
0.014848
0.035125
-0.000704
-0.005826
-0.000202
0.025409
0.014951
-0.0004
0.018476
0.011087
0.026877
-0.003094
0.003747
0.002688
-0.016495
0.01528
0.01475
0.010244
0.006031
-0.015122
0.002884
0.004388
-0.003783
0.007856
0.018132
0.044912
0.014203
0.015798
0.009922
-0.023175
0.010986
0.012648
0.056002
0.008302
0.017293
0.011341
-0.008969
0.032741
0.025808
0.026618
-0.00388
0.037855
-0.012506
0.023426
0.052443
-0.004638
0.003209
0.015455
0.004922
-0.013516
0.016156
-0.003523
0.024993
0.00103
0.04689
0.00667
0.017185
0.040352
0.006868
0.037096
0.061238
0.014264
0.052827
0.061309
0.078631
0.050959
0.058759
0.101719
0.107776
0.117134
0.128893
0.120011
0.145307
0.154281
0.142771
0.194356
0.172784
0.14451
0.177628
0.146289
0.174267
0.1756
0.133193
0.157335
0.138528
0.136352
0.14579
0.097227
0.078222
0.066285
0.058653
0.063659
0.063654
0.055769
0.059778
0.040031
0.06164
0.027104
0.077866
0.03777
0.009177
0.003845
0.030669
0.01711
0.033361
0.028584
0.018452
0.004326
-0.007813
0.011364
0.034806
0.023266
-0.002967
0.022633
0.026522
0.003754
0.022514
0.020883
-0.000642
0.02649
0.030319
0.040039
0.040168
-0.002198
0.008702
0.041099
0.053799
0.078574
0.183636
0.199311
0.321048
0.465075
0.628589
0.774648
0.918042
0.945372
0.925437
0.810835
0.651505
0.494129
0.226482
0.112855
-0.038735
-0.075816
-0.061546
-0.065889
-0.060855
-0.029222
0.014741
0.001153
0.024625
0.024784
0.013922
0.06533
0.039093
-0.007784
0.033128
0.019113
0.047796
0.019808
0.033843
0.047069
0.055891
0.02131
0.039802
0.040505
0.040869
0.088345
0.068175
0.042904
0.087245
0.114464
0.100815
0.061272
0.086715
0.125456
0.097529
0.126245
0.140534
0.11855
0.143076
0.094936
0.144137
0.167431
0.158956
0.220206
0.174379
0.201313
0.220432
0.252521
0.208803
0.263149
0.249376
0.23785
0.269439
0.269526
0.259127
0.274297
0.268304
0.278546
0.288735
0.304727
0.252316
0.310485
0.233551
0.261697
0.269952
0.2586
0.235825
0.236159
0.223358
0.213482
0.230855
0.213154
0.185195
0.204653
0.184715
0.184541
0.172041
0.13672
0.132687
0.147594
0.136792
0.11742
0.112259
0.125881
0.085374
0.099426
0.079917
0.074042
0.092563
0.082881
0.078309
0.083194
0.056476
0.065129
0.044358
0.053179
0.042692
0.044739
0.051911
0.0249
0.075925
0.018971
0.014207
0.056039
0.048704
0.045065
0.044619
0.032655
0.016369
0.033594
0.019809
0.049367
0.029026
0.016709
0.025707
0.038875
0.021265
0.0166
0.035789
0.035827
0.022317
0.022995
0.035689
0.005491
0.00627
0.018723
0.027867
0.037361
0.058379
0.047319
0.029062
0.031658
0.014016
0.031789
0.026987
0.038053
0.017415
0.041715
0.060017
0.030531
0.03978
0.045032
0.025448
0.036764
0.033017
0.034608
0.018996
0.03341
0.041992
0.059208
0.050413
0.071962
0.019451
0.049023
0.036679
0.072853
0.018944
0.018436
0.022819
-0.004566
0.024257
0.020113
0.03654
0.04004
0.067715
0.051107
0.02367
0.017938
0.043019
0.010454
0.067239
0.055556
0.025935
0.003597
0.058857
0.032478
0.056873
0.005945
0.023909
0.034844
0.035648
0.026754
0.046119
0.015744
0.032453
0.037239
0.044394
0.048009
0.015031
0.007746
0.058462
0.041573
0.022282
0.063887
0.038326
0.057837
0.038307
0.07482
0.070153
0.03515
0.058498
0.054373
0.069579
0.030279
0.063294
0.07396
0.027946
0.043785
0.034673
0.073649
0.099329
0.122106
0.105677
0.143423
0.09933
0.10365
0.143273
0.160695
0.161969
0.133107
0.175213
0.158341
0.19721
0.193302
0.169488
0.175028
0.161332
0.17378
0.185195
0.142177
0.159999
0.131756
0.117054
0.119341
0.092737
0.09188
0.071302
0.119919
0.077641
0.057674
0.068207
0.057227
0.050932
0.062335
0.061925
0.036317
0.033565
0.037456
-0.000206
0.013058
0.064264
0.068777
0.03433
0.048942
0.043998
0.093705
0.05837
0.035879
0.020967
0.009251
0.041841
0.024582
0.012619
0.026609
0.018817
0.068713
0.054333
0.03859
0.065995
0.042146
0.028293
0.077645
0.073067
0.070238
0.131751
0.195935
0.30035
0.490782
0.677869
0.780491
0.936768
0.965481
0.934211
0.818297
0.641465
0.459721
0.252586
0.115087
0.001887
-0.056542
-0.080544
-0.059547
-0.009818
0.010405
0.002194
0.032966
0.050844
0.010324
0.051725
0.031026
0.054102
0.031019
0.013315
0.017705
0.049238
0.054614
0.035444
0.065235
0.02611
0.057385
0.039636
0.052884
0.068998
0.056549
0.069388
0.099093
0.075675
0.1066
0.077144
0.113361
0.136539
0.073277
0.110992
0.143665
0.137907
0.156835
0.14814
0.169645
0.174521
0.207681
0.200612
0.211444
0.207176
0.214845
0.224597
0.247893
0.241193
0.261452
0.300472
0.285015
0.268961
0.301161
0.276068
0.24972
0.270342
0.255957
0.283498
0.289399
0.317542
0.290626
0.277279
0.29178
0.231871
0.269985
0.273006
0.225287
0.264718
0.24199
0.219805
0.229751
0.250093
0.203211
0.195056
0.172978
0.156683
0.177798
0.138511
0.146525
0.128247
0.137405
0.127089
0.132444
0.097679
0.095508
0.076678
0.080653
0.090217
0.09224
0.057607
0.085837
0.090936
0.070678
0.094053
0.043687
0.032845
0.021132
0.078223
0.061441
0.047234
0.052029
0.025649
0.088996
0.046494
0.045446
0.055951
0.051044
0.04599
0.027372
0.049785
0.074921
0.06505
0.069333
0.031306
0.022572
0.038019
0.041201
0.059823
0.009605
0.067552
0.037135
0.03226
0.021696
0.010101
0.054683
0.041165
0.016608
0.016499
0.033751
0.069823
0.035093
0.012696
0.035315
0.034816
-0.008832
0.038721
0.035528
0.052203
0.072938
0.059921
0.034789
0.019697
0.08592
0.04065
0.03982
0.039119
0.043103
0.036923
0.02918
0.029646
0.038883
0.029673
0.026606
0.041336
0.034813
0.066456
-0.008352
0.058994
0.061757
0.001988
0.033121
0.032583
0.013914
0.025228
0.019218
0.070728
0.056008
0.062033
0.052113
0.018778
0.029638
0.047865
0.017035
0.051845
0.034662
0.032217
0.051738
0.046913
0.032395
0.059736
0.019385
0.049908
0.049474
0.033205
0.044628
0.016222
0.055364
0.035402
0.029331
0.05765
0.026143
0.013557
0.011028
0.05016
0.016499
0.071546
0.003052
0.071828
0.046103
0.041883
0.035507
0.054636
0.049431
0.073222
0.059342
0.064651
0.060846
0.072629
0.08628
0.057836
0.072961
0.11984
0.119246
0.122855
0.136558
0.15235
0.145778
0.150136
0.175296
0.160505
0.190306
0.155476
0.206019
0.195529
0.189329
0.198362
0.205004
0.186233
0.126623
0.127614
0.129672
0.131325
0.130041
0.097701
0.104549
0.078563
0.072805
0.05091
0.052841
0.039182
0.040805
0.07296
0.033234
0.094672
0.053695
0.046153
0.025796
0.052613
0.028685
0.040505
0.083829
0.035593
0.057688
0.024101
0.035944
0.068306
0.025034
0.068853
0.048893
0.025964
0.047413
0.053482
0.04712
0.007625
0.022785
0.031466
0.034787
0.047872
0.041279
0.017137
0.054628
0.072331
0.097756
0.154702
0.228553
0.337303
0.478164
0.619253
0.817641
0.931426
0.978735
0.912022
0.797684
0.661834
0.443474
0.266281
0.099498
-0.00513
-0.041266
-0.077611
-0.050669
-0.034857
-0.009885
0.010305
0.030845
0.024078
0.058164
0.020906
0.034562
0.030812
0.065629
0.044098
0.060264
0.016257
0.049306
0.062231
0.049655
0.069568
0.043576
0.081056
0.100193
0.055753
0.058101
0.0965
0.103387
0.07057
0.077863
0.086224
0.073389
0.087766
0.093349
0.105118
0.1262
0.139267
0.171493
0.134409
0.179108
0.166707
0.178935
0.201269
0.178169
0.214401
0.219459
0.233997
0.238653
0.285521
0.237208
0.245901
0.250351
0.256949
0.260067
0.296695
0.303734
0.269849
0.266159
0.289696
0.270389
0.289897
0.27941
0.244836
0.295484
0.294661
0.245265
0.242595
0.247387
0.240391
0.237895
0.253517
0.205142
0.184735
0.164915
0.167163
0.170311
0.193876
0.143066
0.147419
0.134353
0.147592
0.163571
0.100778
0.094158
0.114803
0.10174
0.116587
0.088162
0.06591
0.078148
0.083013
0.073753
0.064413
0.071131
0.069958
0.071079
0.055454
0.038612
0.042347
0.059733
0.021822
0.041856
0.026996
0.033595
0.055221
0.034893
0.031634
0.005753
0.043171
0.040931
0.067881
0.023081
0.032286
0.032585
0.056274
0.025973
0.032541
0.038307
0.030585
0.019063
0.030474
0.046196
0.00829
0.029062
0.013972
0.047994
-0.001023
0.016247
0.033012
0.054318
0.024872
0.015979
0.059752
-0.000255
-0.01385
0.033567
0.016529
0.007102
0.038154
0.02971
0.015087
0.002114
0.040782
0.036699
0.023129
0.058071
0.005488
-0.002792
0.01213
0.023681
0.028799
0.019994
0.03059
0.001642
0.050073
0.022523
0.044029
0.030003
0.031971
0.033921
0.03164
0.035065
0.047336
0.026864
0.036003
0.021541
0.048993
0.01081
0.055316
0.02209
-0.003027
0.024947
0.010295
0.037599
0.010634
0.014263
-0.011805
0.013978
-0.021597
-0.006565
0.035545
0.035914
0.02934
0.004188
0.020647
0.021352
0.000478
0.048301
0.036943
0.017085
0.021457
0.024634
-0.015957
0.016255
0.008339
0.002496
0.015375
0.052703
0.03179
0.009883
0.03038
0.045172
0.036536
0.020875
0.008066
0.032187
0.026611
0.03555
0.030778
0.038145
0.009527
0.042782
0.022534
0.056239
0.006387
0.049947
0.02217
0.006789
0.009712
0.012562
0.02587
0.027553
0.007722
0.017517
0.056422
0.048863
0.025528
0.018264
0.019646
0.028435
-0.001113
0.01257
-0.012927
0.024199
0.028568
0.008126
0.04506
-0.005431
-0.009821
0.020482
0.035193
0.046559
0.007891
0.035467
0.015256
0.012735
0.031635
0.027348
-0.012906
0.041891
0.039973
0.003658
0.021794
0.023279
0.018775
0.003881
0.001467
0.01303
0.034854
0.024334
0.009556
0.033095
-0.027251
0.052016
0.010588
0.050011
0.055911
0.07796
0.153658
0.162527
0.222098
0.266286
0.332478
0.386141
0.424757
0.528783
0.562228
0.597819
0.664518
0.73471
0.745389
0.731518
0.723647
0.700603
0.705238
0.622644
0.55997
0.498402
0.405918
0.315982
0.236493
0.161369
0.090393
0.04039
-0.026232
-0.05824
-0.106649
-0.127312
-0.178718
-0.131875
-0.140702
-0.121991
-0.181068
-0.077731
-0.102915
-0.065314
-0.089465
-0.046443
-0.064791
-0.047242
0.006383
-0.025354
-0.013508
0.001285
-0.003656
-0.009118
-0.005366
0.030511
-0.015178
-0.012385
0.000643
-0.000975
-0.002418
-0.015476
-0.050997
-0.00472
-0.058698
-0.036794
-0.060228
-0.05244
-0.050222
-0.05542
-0.058874
-0.042875
-0.069383
-0.087723
-0.071892
-0.073867
-0.123497
-0.096833
-0.101188
-0.125393
-0.101477
-0.135084
-0.136173
-0.14747
-0.149833
-0.175406
-0.186919
-0.137352
-0.186052
-0.19307
-0.218039
-0.194439
-0.209993
-0.159418
-0.173132
-0.20555
-0.153982
-0.177714
-0.201584
-0.240568
-0.153675
-0.218756
-0.2217
-0.171537
-0.143426
-0.15938
-0.170684
-0.166272
-0.157396
-0.154543
-0.158286
-0.156348
-0.153992
-0.160882
-0.146644
-0.16622
-0.131579
-0.141608
-0.137658
-0.108541
-0.080746
-0.08336
-0.122338
-0.106176
-0.06586
-0.095065
-0.076184
-0.057188
-0.079667
-0.055698
-0.077183
-0.059793
-0.039237
-0.069919
-0.029795
-0.034781
-0.021409
-0.024466
-0.001295
-0.021154
-0.028891
-0.016903
-0.007446
-0.014638
-0.013238
-0.025207
-0.023247
-0.035437
0.022305
-0.030688
-0.019985
-0.019754
0.009889
-0.011006
0.017214
-0.016983
0.000489
-0.019295
0.03458
-0.025225
0.001876
0.007821
0.003945
-0.00678
-0.005746
-0.002605
-0.006042
0.013937
0.036347
-0.013518
-0.028191
-0.005182
0.042775
-0.018198
0.025694
0.026307
-0.013942
0.006176
0.025154
-0.011076
-0.008011
-0.014914
-0.022808
-0.016328
-0.026772
-0.004229
-0.018803
-0.000837
-0.033154
0.000706
0.009651
-0.041343
0.001174
0.016436
-0.027539
0.024238
0.00157
-0.018766
-0.007182
0.003768
-0.005017
0.003209
-0.023164
-0.003647
-0.032245
-0.008904
-0.023275
-0.020347
0.015039
0.01233
0.003548
-0.027181
-0.013318
0.014111
-0.005277
0.033817
-0.000953
-0.004679
-0.013802
-0.005937
-0.011188
0.0042
0.008573
-0.022898
-0.032814
-0.042006
8.7e-05
-0.029019
-0.048012
-0.002368
0.03541
-0.009675
0.005425
-0.008296
-0.01165
0.006571
-0.015298
-0.005362
-0.004485
-0.022402
0.007379
-0.013728
-0.024282
-0.001121
-0.02705
-0.010468
-0.011236
0.008381
-0.00271
-0.011789
0.003307
0.01355
-0.001476
-0.011346
-0.035124
-0.030611
-0.016791
-0.022033
-0.014069
-0.009167
6.8e-05
-0.009761
0.001553
-0.004374
-0.03897
-0.017667
-9.5e-05
-0.015339
0.021913
0.044138
0.044812
0.026143
0.064719
0.049182
0.049668
0.054382
0.06993
0.078374
0.098193
0.107282
0.112932
0.128172
0.147861
0.148119
0.107204
0.089065
0.15111
0.107124
0.123385
0.100491
0.081862
0.115654
0.110317
0.076437
0.030033
0.056658
0.06356
0.020307
0.041216
0.02932
0.032474
0.017467
-0.00811
0.025836
-0.002904
-0.004191
-0.023519
-0.017167
-0.027107
-0.015883
0.016784
-0.039706
-0.044822
0.010107
-0.020604
-0.029241
0.001236
-0.028612
0.01497
-0.005854
-0.026976
0.020516
-0.029331
-0.005176
-0.013246
0.004704
0.009296
-0.018292
-0.032415
-0.010386
-0.030272
0.019641
-0.010809
-0.012698
0.011818
0.012482
0.069783
0.191134
0.277447
0.424014
0.622797
0.792039
0.894486
0.93628
0.856233
0.718586
0.592432
0.360242
0.174148
0.052697
-0.05982
-0.108686
-0.084299
-0.117086
-0.062679
-0.054509
-0.033631
-0.000704
-0.013699
-0.010546
0.000391
-0.024626
-0.032393
-0.035259
-0.050886
0.022638
-0.032935
-0.015565
-0.014851
-0.00238
0.008987
0.012294
-0.010882
-0.000259
0.011319
0.005607
0.043252
0.027792
0.03723
0.041401
0.056483
0.044935
0.025069
0.062749
0.051364
0.061476
0.089786
0.110062
0.096956
0.111141
0.145384
0.128329
0.180101
0.152676
0.119905
0.174057
0.175973
0.200577
0.197283
0.189955
0.177091
0.201378
0.195108
0.204451
0.229134
0.251352
0.230234
0.202501
0.231977
0.244509
0.21005
0.215751
0.214677
0.195688
0.216092
0.196113
0.199036
0.168101
0.168265
0.180755
0.152285
0.181037
0.133507
0.135363
0.138672
0.08694
0.071448
0.066503
0.107718
0.066341
0.113904
0.049619
0.055382
0.072494
0.073928
0.068426
0.046995
0.038027
0.02503
0.023558
-0.004791
-0.013629
-0.002625
-0.008941
-0.01702
0.000996
0.003265
-0.014467
0.008652
-0.04016
-0.024561
-0.035263
-0.057082
-0.025952
-0.027507
0.001187
-0.015341
-0.045685
0.005645
-0.006164
-0.018023
-0.032887
-0.04635
-0.036014
-0.009922
0.004222
-0.002082
-0.038803
-0.050286
-0.027713
-0.062188
-0.024638
-0.033205
-0.039024
-0.059422
-0.021552
-0.040462
-0.052006
-0.08272
-0.031585
0.000741
-0.001325
-0.039523
-0.042201
-0.02299
-0.049464
-0.026126
-0.017834
-0.009603
-0.033554
-0.035482
-0.047683
-0.046826
-0.036082
-0.025455
-0.015686
-0.04665
-0.005387
-0.037197
-0.032763
-0.04589
-0.076137
-0.016649
-0.019359
-0.037747
-0.031538
-0.023517
-0.060989
-0.042446
-0.018686
-0.055619
-0.027816
-0.057578
-0.024822
-0.033917
-0.062406
-0.012426
-0.046672
-0.048091
-0.029953
-0.012945
-0.051962
-0.032623
-0.026071
-0.02137
-0.030725
-0.040563
-0.048908
-0.032516
-0.053419
-0.086759
-0.02637
-0.018009
-0.076864
-0.052555
-0.023281
0.002567
-0.034129
-0.047634
-0.037834
-0.009788
-0.046129
-0.048815
-0.042995
-0.05127
-0.031613
-0.004162
-0.027015
-0.036592
-0.036263
-0.057791
-0.012016
-0.027114
-0.026229
0.037838
-0.010235
-0.024375
-0.012953
0.021779
0.010351
-0.009585
0.041557
0.022294
0.077798
0.073531
0.056071
0.096979
0.084426
0.107042
0.107837
0.089976
0.09819
0.131177
0.10767
0.105643
0.093109
0.113594
0.137192
0.073582
0.084844
0.100589
0.063928
0.063408
0.02602
0.042941
0.022365
0.034554
0.029957
0.047746
0.004934
-0.005445
-0.01282
-0.026929
-0.018038
-0.032381
-0.026416
-0.007644
-0.050993
-0.013541
-0.011266
-0.037799
-0.074398
-0.047544
-0.013557
-0.037538
-0.055283
-0.046509
-0.022391
-0.027759
-0.041965
-0.04432
-0.044816
-0.054409
-0.008764
-0.043666
-0.015951
-0.010397
-0.019549
-0.044605
-0.027968
-0.032135
-0.040475
-0.003147
-0.000961
0.093705
0.14819
0.281985
0.43856
0.599288
0.770487
0.858918
0.915581
0.822748
0.720084
0.572046
0.319694
0.13962
0.013763
-0.087957
-0.129353
-0.131449
-0.11019
-0.075365
-0.064352
-0.059331
-0.032886
-0.005553
-0.039569
-0.05338
-0.015002
-0.036263
-0.072301
-0.016906
-0.040605
-0.031229
-0.022054
-0.02281
-0.011437
-0.02975
-0.010094
-0.021112
7.6e-05
0.001421
-0.022557
0.01815
-0.006323
0.023003
0.020624
0.05308
0.022374
0.026931
0.040099
0.042612
0.070455
0.035285
0.054035
0.06266
0.108071
0.13099
0.107641
0.115823
0.129411
0.158223
0.129569
0.159216
0.180774
0.180086
0.181796
0.203118
0.142482
0.208645
0.189177
0.17166
0.216586
0.233965
0.20768
0.22727
0.238153
0.230875
0.233883
0.213994
0.197421
0.161862
0.180167
0.162647
0.209532
0.159395
0.15644
0.155444
0.137314
0.157849
0.106814
0.11216
0.08595
0.066303
0.069952
0.071407
0.055714
0.042647
0.021804
0.037998
0.005175
0.039116
0.020513
-0.013188
0.001925
-0.011185
0.003374
0.017432
-0.044389
-0.012139
-0.020316
-0.008246
-0.019082
-0.038761
-0.033011
-0.043399
-0.011285
-0.031653
0.00098
-0.035377
-0.047937
-0.063207
-0.069078
-0.065699
-0.032854
-0.028908
-0.066865
-0.022576
-0.047617
-0.036475
-0.010258
-0.023266
-0.044349
-0.055644
-0.078404
-0.052671
-0.04357
-0.057573
-0.042192
-0.038465
-0.043909
-0.051571
-0.036841
-0.031925
-0.059507
-0.014482
-0.04165
-0.039532
-0.027118
-0.035661
-0.022696
-0.034676
-0.05086
-0.03332
-0.060405
-0.037854
-0.040396
-0.043534
-0.04209
-0.073639
-0.049631
-0.038071
-0.036853
-0.058217
-0.016923
-0.055284
-0.02223
-0.031977
-0.051285
-0.007684
-0.06111
-0.023066
-0.021585
-0.051652
-0.014501
-0.044051
-0.034338
-0.034832
-0.041919
-0.024891
-0.025186
-0.070925
-0.015956
-0.069341
-0.020812
-0.019099
-0.058999
-0.046737
-0.059226
-0.043173
-0.044829
-0.025231
-0.015659
-0.014102
-0.049323
-0.042949
-0.069463
-0.053646
-0.021751
-0.010016
-0.061292
-0.049716
-0.039504
-0.033963
-0.053555
-0.031326
-0.047464
-0.039171
-0.029053
-0.038746
-0.046692
-0.040784
-0.040376
-0.04542
-0.043392
-0.009932
-0.028585
-0.043973
-0.026082
-0.044609
-0.017456
-0.031891
-0.040448
-0.030429
-0.066735
-0.058712
-0.059892
-0.035798
-0.007155
0.001855
-0.026791
-0.029225
-0.070619
-0.047921
-0.052276
-0.049196
-0.040946
-0.046275
-0.073203
-0.023824
-0.056184
-0.031986
0.001854
-0.050914
-0.07841
-0.036031
-0.008505
0.010166
-0.043214
-0.007313
-0.018943
-0.00595
0.050841
-0.015906
0.024028
0.036328
0.055711
0.045639
0.056215
0.049155
0.065029
0.056212
0.073886
0.05444
0.064456
0.052093
0.06649
0.037884
-0.001169
0.045108
-0.002214
-0.005645
-0.011998
0.016793
-0.052237
0.037694
-0.003928
-0.022285
-0.029956
-0.025885
-0.023195
-0.022105
-0.024549
-0.033542
-0.039149
-0.038572
-0.039123
-0.013529
-0.017873
-0.068095
0.024774
0.067789
0.146055
0.254956
0.42458
0.572746
0.675289
0.783522
0.777734
0.71457
0.607415
0.471939
0.299057
0.131746
0.010677
-0.074821
-0.135856
-0.124149
-0.104776
-0.084132
-0.054551
-0.045648
-0.039919
-0.019467
-0.034876
-0.047766
-0.033188
-0.042324
-0.039744
-0.028738
-0.038751
-0.028147
-0.054539
-0.014175
-0.015236
-0.026868
0.003165
0.012019
-0.029549
-0.009681
-0.00471
-0.002268
0.035526
0.023472
0.02897
0.004813
0.059821
0.033887
0.065343
0.077531
0.105441
0.065866
0.043535
0.109557
0.146831
0.144618
0.133614
0.128051
0.157938
0.131758
0.163016
0.167915
0.181432
0.214662
0.173761
0.158293
0.166788
0.13424
0.151471
0.153591
0.14764
0.15512
0.132132
0.161
0.134122
0.126745
0.113391
0.114148
0.118038
0.079272
0.074677
0.072729
0.045749
0.047182
0.045545
0.062334
0.044131
0.036068
0.041474
0.017673
0.021588
0.007546
0.009453
-0.01012
-0.047427
-0.009452
0.01544
0.003719
0.001968
0.004688
-0.017843
-0.017511
-0.033576
-0.029339
-0.013575
-0.003838
-0.028725
-0.034903
-0.027268
-0.016842
-0.05396
-0.069543
-0.038306
-0.050506
-0.037777
-0.031355
-0.036891
-0.002604
-0.022864
-0.023319
-0.017499
-0.049159
-0.009909
-0.029924
-0.016434
-0.047734
-0.056344
-0.013587
-0.021465
-0.044407
-0.043753
-0.007768
-0.049363
0.001689
-0.044016
-0.016239
-0.03357
-0.016722
-0.037298
-0.030358
-0.026615
-0.045315
-0.013864
-0.03636
-0.03116
-0.044866
-0.073012
-0.030251
0.016692
-0.012534
-0.026925
-0.031232
-0.026017
-0.016495
-0.047519
-0.006127
-0.013229
-0.013099
-0.018054
-0.025514
-0.013675
-0.015054
-0.031999
-0.035871
-0.023632
0.002498
-0.047607
-0.051637
-0.022175
-0.024143
-0.021857
-0.020504
-0.028831
0.002086
-0.053465
-0.039479
-0.026342
-0.053978
-0.027483
0.005672
-0.023775
-0.019915
-0.046666
-0.034994
-0.030569
-0.02945
-0.000577
-0.013524
-0.043484
-0.018955
-0.014339
-0.0027
0.005313
-0.041323
-0.03756
-0.045515
-0.027004
-0.014309
-0.004842
-0.02389
-0.028186
-0.019598
-0.037257
0.015502
-0.050919
-0.018507
0.014769
-0.021317
-0.02459
-0.02726
-0.023633
0.004894
-0.058896
0.009464
-0.04256
-0.020196
-0.021197
-0.000486
-0.036914
0.003722
0.03608
-0.019903
0.013837
0.005117
0.032128
0.033017
0.030041
0.059872
0.093501
0.067749
0.094299
0.067957
0.083369
0.117612
0.143249
0.129017
0.121506
0.12994
0.108444
0.140984
0.143324
0.114932
0.108686
0.114667
0.093663
0.091156
0.120425
0.068207
0.056228
0.041281
0.057023
0.031646
0.015207
0.04345
0.038808
-0.003142
-0.030725
0.016966
-0.016847
0.00697
-0.044921
0.004875
-0.034336
-0.0004
-0.014054
-0.032029
-0.022567
-0.003141
-0.013747
-0.005219
0.019806
-0.043919
0.013383
-0.013794
-0.031781
-0.03947
-0.018844
0.00124
-0.017549
0.012056
-0.041126
-0.015001
-0.036904
-0.006934
0.004361
-0.01521
-0.046286
0.02067
0.056308
0.110926
0.214121
0.298514
0.488004
0.667875
0.76692
0.905386
0.914158
0.860078
0.731882
0.532695
0.329968
0.160096
-0.002149
-0.091989
-0.099622
-0.13369
-0.080764
-0.057936
-0.07422
-0.039263
0.003934
-0.03023
-0.018422
-0.000351
0.006446
-0.011222
-0.01641
0.02112
0.02815
0.015984
0.001616
-0.01253
-0.010747
0.016054
0.016916
0.037659
0.027515
-0.007521
0.042568
0.010153
0.026094
0.042809
0.079948
0.106151
0.067663
0.060431
0.080742
0.09488
0.081274
0.127836
0.108436
0.122276
0.134526
0.139493
0.156451
0.139697
0.150154
0.14966
0.186416
0.201272
0.20386
0.233671
0.210803
0.229705
0.204099
0.222119
0.246141
0.252589
0.234806
0.240679
0.215575
0.236447
0.257928
0.250345
0.246179
0.234356
0.229042
0.211696
0.230098
0.218371
0.212333
0.186176
0.148614
0.198497
0.161228
0.14522
0.164019
0.135225
0.152136
0.135036
0.127265
0.081618
0.119529
0.09423
0.075035
0.076789
0.035154
0.06781
0.035674
0.024026
0.015568
0.058015
0.022085
0.056843
0.015798
-0.008717
-0.001164
0.038421
0.010918
0.001685
0.012523
0.017003
0.026628
0.031329
-0.002302
-0.020618
-0.004974
0.006496
-0.016084
-0.016415
0.006636
-0.000721
0.000515
-0.013903
-0.004527
-0.017105
0.015499
0.018083
-0.033787
-0.01727
-0.027444
-0.012161
-0.001904
-0.026429
-0.016855
-0.018252
0.003636
0.001243
-0.012904
0.003366
-0.00956
-0.00451
0.030602
0.024709
-0.022709
0.015721
0.015494
-0.019676
0.015834
0.028883
-0.018901
-0.015106
0.019831
0.006505
0.011649
0.007957
0.008964
-0.021841
0.020992
0.023298
-0.00178
0.001671
-0.025001
0.01192
0.013065
0.001753
0.023215
-0.002932
0.013348
-0.015064
0.00297
0.00036
0.007658
-0.002944
0.001445
0.018784
-0.003842
-0.024794
0.035721
0.029199
-0.018824
0.016955
-0.004409
0.009491
0.010149
0.000737
-0.009047
-0.007265
-0.011223
-0.009601
0.004267
-0.007304
0.017961
0.032559
-0.004548
0.010308
0.0151
0.01471
0.007692
0.019809
0.015243
-0.015583
0.022485
0.022977
-0.006539
0.008117
0.020023
0.004318
0.027861
0.051688
-0.004251
-0.01399
0.017576
0.026662
0.01148
0.044225
-0.003052
0.037114
0.018027
0.064927
0.075688
0.03269
0.044082
0.077708
0.064229
0.079922
0.091157
0.066325
0.110792
0.108507
0.121369
0.164713
0.123481
0.166748
0.151537
0.154249
0.17442
0.165377
0.166781
0.169487
0.140103
0.127725
0.110812
0.106282
0.164494
0.123839
0.067154
0.057953
0.081156
0.073656
0.06572
0.04407
0.04004
0.04266
0.033558
-0.011934
0.020563
0.006673
0.022986
0.07186
0.023421
0.010163
0.031659
0.023221
0.021724
0.02484
0.050784
-0.006669
0.022186
-0.003002
0.023711
-0.002766
0.006329
0.008611
0.031574
0.030633
-0.008224
0.015298
0.001681
-0.007971
0.011215
0.010486
0.061673
0.029912
0.005867
0.037598
0.098535
0.174488
0.198535
0.321125
0.547895
0.691762
0.819703
0.942053
0.904069
0.885485
0.752071
0.576979
0.342884
0.181681
0.024028
-0.04174
-0.099445
-0.090263
-0.079915
-0.023774
0.002731
-0.001248
0.012868
-0.009089
0.014005
0.01985
0.068926
0.002693
0.050103
0.042865
0.031308
0.059429
0.036191
0.038442
0.032669
0.058104
0.05856
0.030616
0.021518
0.04535
0.038712
0.056467
0.084783
0.059591
0.072786
0.080759
0.101569
0.052852
0.089779
0.112292
0.138242
0.116269
0.10012
0.154076
0.140705
0.140087
0.159698
0.177058
0.178873
0.159295
0.224159
0.239674
0.236786
0.212451
0.236632
0.246856
0.263782
0.270315
0.249546
0.267859
0.277344
0.297123
0.284462
0.285895
0.272163
0.294067
0.273165
0.246522
0.282676
0.264587
0.237934
0.230502
0.237108
0.232232
0.219137
0.212529
0.228592
0.208158
0.183066
0.187304
0.142535
0.159144
0.175571
0.130317
0.110488
0.105819
0.090097
0.088111
0.088487
0.063186
0.082517
0.09265
0.054668
0.093371
0.070644
0.075823
0.041636
0.065428
0.027305
0.060223
0.044832
0.049518
0.016478
0.019844
0.045238
0.016145
0.040456
0.00657
0.045646
0.007518
0.039079
0.039928
0.015738
0.038442
0.032401
0.017816
0.009209
-0.008078
0.033463
-0.001049
0.028804
0.022337
0.03931
0.021668
0.021206
0.04035
0.033254
0.032967
0.035781
-0.000245
0.041082
0.038552
0.009296
0.023273
0.02703
0.025388
0.033892
0.05372
0.0475
0.004482
0.039373
0.05217
0.035285
0.048034
0.06469
0.04697
0.033104
0.047501
0.03137
0.029265
0.022581
0.057121
0.014319
0.056706
0.038192
0.004079
0.035955
-0.008392
0.040739
0.045484
0.018958
0.031915
0.064936
0.020728
0.01084
0.05664
0.065366
0.030175
0.048384
0.054392
0.01695
0.021647
0.052606
0.060849
0.040718
0.014817
0.066488
0.02123
0.024822
0.037083
0.058962
0.046425
0.038587
0.039524
0.032034
0.041362
-0.014151
0.026107
0.035854
0.010856
0.038593
0.028022
0.063365
0.060144
0.023509
0.029241
0.030688
0.023952
0.035655
0.018558
0.011918
0.043539
0.043724
0.017976
0.048631
0.021207
0.037193
0.047463
0.032152
0.041002
0.023581
0.0294
0.02929
0.019616
0.029931
0.005297
0.02439
0.028161
0.028735
0.029057
0.03235
0.042149
0.049317
0.021937
0.012032
0.014989
0.025032
0.027523
0.020054
0.010639
0.025814
0.037345
0.044844
0.024155
0.026809
0.017616
0.033784
0.019132
0.044774
0.002365
0.02809
0.040036
0.037977
0.083194
0.041068
0.016749
0.033154
0.002948
0.033517
0.020016
0.051526
0.025188
0.032997
0.023662
0.066383
0.029256
0.067946
0.0495
0.043377
0.041176
0.041489
-0.000342
0.029499
0.050282
0.035383
0.013164
0.041172
0.07849
0.078695
0.06708
0.101608
0.09933
0.102599
0.150426
0.235737
0.249872
0.303749
0.361154
0.462793
0.521264
0.594485
0.610593
0.671218
0.681828
0.767266
0.737539
0.765286
0.728764
0.709504
0.662018
0.610199
0.544843
0.470193
0.415724
0.299784
0.243921
0.186274
0.086015
0.021606
-0.020679
-0.035993
-0.083967
-0.117209
-0.109941
-0.141511
-0.105856
-0.102161
-0.102899
-0.098143
-0.083772
-0.043029
-0.016232
-0.036914
-0.005996
-0.042475
-0.007951
0.007739
-0.003938
-0.00167
0.004737
0.022603
0.013751
-0.024046
-0.023352
0.002029
0.018945
-0.041324
-0.003734
-0.007353
0.023711
-0.011856
-0.001918
-0.010391
-0.055635
-0.008033
-0.022775
-0.022503
0.033824
-0.079741
-0.01673
-0.058646
-0.054127
-0.066052
-0.078885
-0.087577
-0.077487
-0.116821
-0.082059
-0.109049
-0.127782
-0.121285
-0.096125
-0.133748
-0.122773
-0.147215
-0.124935
-0.130414
-0.113278
-0.153112
-0.140887
-0.153679
-0.134172
-0.172006
-0.14673
-0.164214
-0.161924
-0.158668
-0.154823
-0.160001
-0.152101
-0.125143
-0.132938
-0.131724
-0.151851
-0.155557
-0.1179
-0.114547
-0.098738
-0.130792
-0.118505
-0.138149
-0.109819
-0.078816
-0.09907
-0.073017
-0.081833
-0.066445
-0.086858
-0.058661
-0.108131
-0.051872
-0.072217
-0.015685
-0.018101
-0.018589
0.005291
-0.034479
0.018524
0.008096
-0.008924
0.019565
-0.017226
-0.008815
-0.00181
0.002525
-0.004277
0.039248
0.014871
0.027987
0.013312
-0.007424
0.031819
-0.006
0.028511
0.006312
0.06779
0.04939
0.035754
0.057369
0.020076
0.045701
0.040055
0.041686
0.060255
0.050905
0.043239
0.008535
0.021286
0.03657
0.040643
0.018777
0.082667
0.066669
0.050312
0.040856
0.035812
0.022559
0.04114
0.044429
0.017474
0.045872
0.037087
0.005562
0.024433
0.032489
0.073924
0.049972
0.015922
0.048714
0.012118
0.05946
0.031492
0.038287
0.063837
0.016802
0.014821
0.029461
0.058654
0.012611
-0.011023
0.03183
0.049877
0.061546
0.031599
0.032524
0.060694
0.006262
0.032917
0.043331
0.047982
0.030712
0.040501
-0.004917
0.028017
0.048021
0.022169
0.040906
0.047884
0.033673
0.04291
0.022521
0.03615
0.050886
0.042782
0.029482
0.0442
0.053207
0.003702
0.061822
0.035398
0.049772
0.064545
0.019459
0.032867
0.042335
0.035789
0.084048
0.040949
0.050622
0.069312
0.049807
0.07096
0.091248
0.087764
0.100986
0.102614
0.094757
0.137875
0.1737
0.152158
0.165008
0.181678
0.153477
0.212704
0.18985
0.217996
0.176019
0.220684
0.198856
0.190111
0.178102
0.161844
0.179305
0.150824
0.102999
0.108188
0.114883
0.114007
0.098067
0.112297
0.047227
0.077712
0.036007
0.076826
0.056663
0.061869
0.035396
0.071209
0.064691
0.054656
0.040413
0.052086
0.028083
0.055566
0.069374
0.058593
0.025921
0.045359
0.015428
0.048895
0.046617
0.004781
0.01747
0.033239
0.032879
0.016488
0.04523
0.042739
0.034736
0.024743
0.057568
0.069353
0.032839
0.034859
0.063809
0.066754
0.105082
0.180692
0.227024
0.416751
0.555856
0.717032
0.869112
0.9596
0.938974
0.922135
0.750162
0.568386
0.378735
0.165612
0.058244
-0.036582
-0.048925
-0.099173
-0.040647
-0.023419
0.017166
0.032644
0.01994
0.02419
0.037133
0.024143
0.056288
0.035313
-0.009449
0.037185
0.026457
0.017191
0.025888
0.051964
0.075991
0.060062
0.046148
0.068225
0.055042
0.054444
0.050183
0.043832
0.073153
0.088238
0.089297
0.089616
0.08657
0.121448
0.0941
0.13947
0.115513
0.128387
0.124195
0.150481
0.186162
0.187121
0.204754
0.205843
0.185807
0.208798
0.209559
0.256092
0.218749
0.264055
0.271171
0.294537
0.260044
0.285299
0.317796
0.268998
0.254978
0.250335
0.297626
0.250571
0.276487
0.288847
0.281185
0.28151
0.273021
0.286429
0.239938
0.237912
0.228628
0.249414
0.242187
0.225268
0.229353
0.177566
0.219396
0.207391
0.183841
0.193406
0.122416
0.133919
0.121517
0.139444
0.099606
0.12457
0.128426
0.109503
0.09575
0.066938
0.063978
0.096633
0.083496
0.064488
0.053771
0.021294
0.03529
0.086101
0.026076
0.050243
0.06293
0.020405
0.04473
0.056893
0.039014
0.089354
0.00676
0.055046
0.032181
0.048583
0.04211
0.02052
0.03745
-0.000449
0.043561
0.037817
0.043726
0.051084
0.038486
0.034383
0.015724
0.018641
0.052712
0.057102
0.026867
0.031892
0.014696
0.052007
0.042797
0.065685
0.014859
0.023792
0.03469
0.04209
0.026501
0.014599
0.046108
0.043153
0.01361
0.054431
0.051027
0.032311
0.031257
0.039727
0.014173
0.030154
-0.0092
0.045248
0.001294
0.056391
0.023316
0.025377
0.017816
0.023858
0.054505
-0.015882
0.051812
0.034838
0.006954
0.009252
0.058709
0.011442
0.007627
0.048785
0.034333
0.011282
0.031989
0.009552
0.047755
0.04697
0.037367
0.034225
0.059341
0.027558
0.006214
0.035502
0.064884
0.008993
0.020675
0.034601
0.026057
0.009269
0.047066
0.068556
0.030248
0.010366
-0.00132
0.031126
0.046274
0.034878
0.026203
0.01556
0.006429
0.041034
0.042377
-0.001973
0.054387
0.036025
0.050806
0.001378
0.000876
0.022708
0.034373
0.0576
0.037931
0.020828
0.006726
0.047386
0.007983
0.054842
0.0207
0.054879
0.039081
0.025236
0.019479
0.024161
0.039879
0.035889
0.026654
0.037751
0.046103
0.010887
0.062486
0.042086
0.044778
0.041172
0.045269
0.05898
0.076022
0.128716
0.088026
0.103608
0.109378
0.105047
0.100542
0.078429
0.12292
0.125181
0.057383
0.063635
0.071024
0.052508
0.072804
0.044611
0.091056
0.068331
0.046066
0.056624
0.054509
0.021463
0.014441
0.028517
0.040996
0.026706
-0.005185
0.007976
0.020501
0.020016
0.056536
-0.004186
0.029657
0.047205
0.061186
0.01299
0.029203
0.030914
0.024865
0.020935
0.033076
-0.015992
0.049053
0.050339
0.060999
0.126084
0.110175
0.158078
0.254332
0.265752
0.339583
0.417935
0.503643
0.550732
0.566522
0.602057
0.598144
0.579679
0.536856
0.464966
0.339674
0.297817
0.190053
0.123415
0.030661
-0.018768
-0.075255
-0.088304
-0.117218
-0.13002
-0.079456
-0.089982
-0.077672
-0.091806
-0.07352
-0.028455
-0.017051
-0.019412
0.002895
0.03542
0.024
-0.005761
0.015096
0.004298
0.013101
0.013713
0.013549
0.000535
0.021853
0.01516
-0.026282
0.064709
0.04878
0.023963
0.03276
0.01315
0.066719
0.072441
0.04334
0.061309
0.048539
0.023948
0.043342
0.055987
0.048392
0.055689
0.061108
0.064489
0.070121
0.053352
0.062807
0.055847
0.099791
0.04745
0.109197
0.116361
0.088813
0.050089
0.09296
0.100629
0.085698
0.096482
0.134913
0.120682
0.093133
0.081788
0.105127
0.107334
0.119962
0.10094
0.119025
0.143593
0.122092
0.104922
0.1006
0.095337
0.120638
0.085512
0.094845
0.092011
0.078971
0.060089
0.0873
0.077006
0.083674
0.061601
0.08971
0.048495
0.091668
0.026019
0.061994
0.059499
0.033489
0.052421
0.064901
-0.000822
0.04547
-0.010985
0.014121
0.058574
0.016661
0.004024
0.019745
0.058816
-0.012965
-0.000384
0.044144
0.049391
0.012958
-0.008517
0.050569
0.040688
0.023433
-0.004115
0.00899
0.006412
0.014735
0.03443
0.023718
-0.011886
0.031938
0.012484
0.01893
0.032701
-0.013942
0.005203
-0.003919
-0.022761
0.011528
0.050332
-0.028151
0.004244
0.016217
0.006769
0.00239
-0.019084
0.008372
-0.009558
-0.035469
0.025339
0.020975
0.004544
0.007629
0.022735
0.007328
0.019455
-0.002278
0.026586
0.008639
0.006252
-0.020207
0.007714
-0.012531
-0.00915
-0.012443
-0.017063
0.040271
0.025884
0.036382
-0.020302
0.002888
-0.021782
-0.011126
-0.015235
0.023499
-0.00605
0.020208
0.011747
0.042234
-0.025967
0.023225
0.02109
-0.017172
0.018373
0.00619
-0.00406
-0.014901
-0.013118
0.036617
-0.000372
0.01359
-0.014829
-0.014734
0.018675
-0.025197
-0.008481
-0.000496
0.000797
-0.004527
0.00573
0.010992
0.011671
-0.019356
-0.006763
0.019851
0.014486
-0.026234
0.004978
-0.036678
0.000191
0.034098
-0.016307
-0.013167
0.017041
-0.022633
-0.003918
0.021103
0.002484
0.013894
0.036543
0.036547
0.040399
0.03694
0.057918
0.05792
0.077828
0.070462
0.086111
0.081496
0.108266
0.103259
0.105866
0.137469
0.142132
0.15628
0.136568
0.151983
0.153019
0.147785
0.119917
0.130967
0.127055
0.11183
0.064598
0.095035
0.121775
0.065337
0.048871
0.059334
0.0495
0.05734
0.006018
0.035436
0.027328
0.009357
0.013962
0.023016
0.017404
-0.021136
0.012381
-0.004994
-0.00366
-0.004548
-0.009267
0.014346
-0.009036
-0.028016
-0.015215
-0.005133
0.013594
0.002166
-0.024138
0.035778
-0.004307
0.013772
-0.012023
0.000208
0.005634
0.012407
0.009573
0.006553
-0.01394
-0.016465
0.004445
0.024999
0.023698
0.083449
0.15342
0.208729
0.345515
0.521666
0.698673
0.825347
0.940944
0.924882
0.834459
0.655931
0.466365
0.297133
0.079779
0.007481
-0.089518
-0.056197
-0.067002
-0.088795
-0.061374
-0.020362
0.006359
-0.045901
-0.044617
-0.021752
0.000976
0.00021
0.011296
-0.028682
-0.047764
0.01055
-0.018435
-0.038286
0.00246
0.016178
0.002028
-0.001399
0.006906
0.006374
-0.007595
0.007806
0.034446
0.03565
0.038098
0.022796
0.043502
0.014064
0.063362
0.093168
0.048596
0.072621
0.097453
0.122724
0.100988
0.105663
0.091878
0.138437
0.182583
0.159987
0.163605
0.178577
0.181035
0.174656
0.211686
0.207951
0.210595
0.198413
0.244363
0.23698
0.218314
0.248651
0.223086
0.218444
0.218372
0.198746
0.236759
0.19205
0.198767
0.17856
0.208641
0.201042
0.19078
0.170236
0.159749
0.180638
0.153466
0.159912
0.128952
0.138718
0.149468
0.127159
0.099898
0.102838
0.084992
0.080856
0.066559
0.061518
0.060727
0.03186
0.024699
0.011657
0.001936
0.003344
0.023057
-0.000544
0.020504
0.007996
-0.03159
0.012446
0.012384
-0.022669
0.000491
-0.024527
-0.009158
-0.035272
-0.04619
-0.022035
-0.018449
-0.02432
-0.039293
-0.025892
-0.014465
-0.020658
-0.017032
-0.032785
1.4e-05
-0.042558
-0.012882
-0.000623
-0.013452
-0.025943
-0.031977
-0.003972
-0.048376
-0.040355
-0.03017
-0.00085
-0.0164
-0.040763
-0.029023
-0.034591
-0.036403
-0.006098
-0.048499
0.005062
-0.009075
-0.004433
-0.032487
-0.026938
-0.05012
-0.033851
-0.015605
-0.001245
-0.044586
-0.031319
-0.027545
-0.050028
-0.014342
-0.0381
-0.028666
-0.033366
-0.03952
-0.02552
-0.029355
-0.032248
-0.038747
-0.019964
0.00397
-0.023358
-0.008025
-0.051059
-0.023275
-0.045946
-0.052857
-0.03966
-0.004976
-0.009409
-0.022213
-0.054254
-0.030276
-0.021391
-0.023739
-0.060164
-0.043079
-0.028284
-0.017554
-0.066814
-0.030279
-0.024862
-0.01222
-0.015117
-0.017178
-0.042139
-0.062159
-0.034964
-0.009934
-0.002955
-0.01532
-0.020452
-0.021416
-0.038324
-0.030715
0.001616
-0.045435
0.000571
-0.034296
-0.004614
-0.053723
-0.017723
-0.04132
-0.053215
-0.02335
-0.008477
-0.040993
-0.051621
-0.024801
-0.022815
-0.008976
0.001209
-0.013349
0.025434
0.001154
-0.003227
-0.019285
0.012521
0.01948
0.05178
0.052319
0.032636
0.066994
0.085924
0.110932
0.108359
0.114122
0.108371
0.119724
0.139059
0.094658
0.112608
0.103398
0.120748
0.131021
0.091595
0.051514
0.078312
0.092636
0.075884
0.063753
0.040923
0.01316
0.036165
0.003212
0.049618
0.013446
-0.013579
-0.01962
-0.014991
-0.0216
-0.000491
-0.019952
-0.038674
0.006767
-0.027762
-0.015896
-0.041523
-0.024684
-0.026114
-0.066104
0.003897
-0.009368
-0.039922
-0.052751
-0.026767
-0.031557
-0.026798
-0.029825
-0.024229
-0.007352
-0.023233
-0.052391
-0.008967
-0.003848
0.023736
-0.052256
-0.025427
-0.062407
-0.004801
-0.004373
0.077895
0.09405
0.177598
0.336785
0.474347
0.691833
0.780418
0.89603
0.85422
0.798208
0.678705
0.462753
0.24337
0.086467
-0.038765
-0.103668
-0.162412
-0.119737
-0.15555
-0.092208
-0.068798
-0.034948
-0.038274
-0.06013
-0.050672
-0.028299
-0.032474
-0.040647
-0.037948
-0.015689
-0.036299
-0.027138
0.015143
-0.047676
-0.053266
-0.003438
-0.027072
-0.017583
-0.022576
-0.009494
0.02803
0.01816
0.024113
-0.011611
-0.001129
-0.025375
0.017718
0.05648
0.055938
0.050401
0.062096
0.058528
0.083326
0.102374
0.068633
0.112367
0.13307
0.118117
0.147419
0.194525
0.150797
0.168246
0.155969
0.180121
0.192188
0.193821
0.177668
0.204681
0.231413
0.21643
0.228029
0.207877
0.226126
0.217187
0.193629
0.214133
0.187299
0.189638
0.199495
0.195724
0.162547
0.195864
0.179559
0.148459
0.124937
0.141144
0.126615
0.127399
0.109454
0.070466
0.090273
0.082543
0.090407
0.057622
0.091871
0.019029
0.069175
0.034051
0.046475
0.025765
0.03859
0.005279
-0.012926
0.027432
-0.004758
-0.002912
0.011518
-0.03273
-0.006544
-0.03067
-0.024923
-0.02346
-0.053728
-0.042475
-0.005658
-0.015357
-0.033596
-0.029099
-0.039642
-0.010678
-0.039347
-0.032119
-0.016134
-0.051156
-0.009445
-0.065339
-0.008701
-0.044948
-0.042782
-0.07258
-0.04687
-0.057505
-0.049815
-0.041425
-0.021778
-0.035338
-0.033585
-0.058886
-0.055058
-0.006861
-0.052502
-0.009485
-0.043698
-0.039305
-0.020102
-0.016496
-0.041405
-0.046419
-0.040456
-0.033384
-0.023441
-0.039426
-0.028379
-0.010045
-0.032688
-0.033957
-0.066923
-0.08695
-0.032621
-0.041333
-0.048907
-0.035271
-0.040755
-0.019381
-0.038145
-0.053152
-0.021897
-0.04364
-0.030266
-0.048349
-0.051464
-0.038263
-0.039558
-0.031163
-0.044646
-0.072875
-0.04762
-0.025551
-0.045202
-0.044293
-0.022112
-0.05269
-0.067653
-0.042782
-0.048614
-0.057298
-0.04307
-0.031072
-0.040093
-0.034407
-0.007297
-0.046116
-0.034939
-0.04912
-0.055194
-0.050492
-0.048586
-0.033502
0.002307
-0.052868
-0.047482
-0.041122
-0.032864
-0.035247
-0.016879
-0.08367
-0.082961
-0.048923
-0.020247
-0.068181
-0.094137
-0.029719
-0.035614
-0.059623
-0.057739
-0.057453
-0.038007
-0.051269
-0.031101
-0.091375
-0.055413
-0.060256
-0.044598
-0.049666
-0.025616
-0.073441
-0.039149
-0.029911
-0.006533
-0.048613
-0.034085
-0.07237
-0.082917
-0.024597
-0.039812
-0.01836
-0.064085
-0.029695
-0.004962
-0.030399
-0.032069
-0.035651
-0.062413
-0.007546
-0.040129
-0.016524
-0.049417
-0.037344
0.015741
-0.009505
0.030451
0.010967
-0.012397
0.045198
0.026565
0.057097
0.051246
0.027894
0.061847
0.099801
0.068604
0.056271
0.07249
0.051238
0.044319
0.013138
0.028741
0.034773
-0.007131
0.025785
-0.008636
-0.029318
-0.000889
-0.028662
-0.013661
-0.035665
-0.033908
-0.025801
-0.030839
-0.073019
-0.058031
-0.021675
-0.041182
-0.048363
-0.062741
-0.054868
-0.063722
-0.010454
0.017536
0.074589
0.187245
0.323466
0.503599
0.586005
0.751023
0.807539
0.762914
0.694935
0.541177
0.381588
0.234337
0.071611
-0.037053
-0.117282
-0.161186
-0.135641
-0.092451
-0.119286
-0.090518
-0.054029
-0.064034
-0.054628
-0.044605
-0.059541
-0.051058
-0.019578
-0.054428
-0.058151
-0.039008
-0.012522
-0.026996
-0.029266
-0.01723
-0.046226
-0.002302
-0.000316
-0.010188
0.020103
-0.013053
0.033221
0.021801
0.019479
0.032091
0.0378
0.06931
0.035869
0.049665
0.090361
0.069412
0.104797
0.127584
0.098031
0.125571
0.100264
0.141929
0.138746
0.149895
0.135314
0.121844
0.164801
0.121735
0.155387
0.179323
0.166159
0.197135
0.178924
0.146178
0.155023
0.149418
0.116746
0.122537
0.122972
0.089462
0.119552
0.106425
0.072725
0.101853
0.099102
0.081927
0.063693
0.071995
0.065618
0.051191
0.023407
0.03617
0.046032
0.0075
0.050149
-0.0025
0.00255
-0.014707
-0.002736
-0.041866
-0.023702
-0.036535
-0.017104
-0.003986
-0.012312
-0.068417
0.009484
-0.023285
-0.04371
-0.027865
-0.02833
-0.044179
-0.029171
-0.044127
-0.040843
-0.046217
-0.059889
-0.03166
-0.023891
-0.025262
-0.019845
-0.028815
-0.04427
-0.019579
-0.059126
-0.05089
-0.052012
-0.015187
-0.017624
-0.025784
-0.015219
-0.050296
-0.028147
-0.036626
-0.019079
-0.036346
-0.041148
-0.02443
-0.018342
-0.046089
-0.035104
-0.053001
-0.078859
-0.030231
-0.022823
-0.02901
-0.068763
-0.039929
-0.073487
-0.008845
-0.052992
-0.010788
-0.016302
-0.04948
-0.053601
-0.026846
-0.048292
-0.03119
-0.041667
-0.064977
-0.073005
-0.028717
-0.042845
-0.042632
-0.02009
-0.011433
-0.0374
-0.038564
-0.023369
-0.056735
-0.028231
-0.022252
-0.01988
-0.066923
-0.045703
-0.047744
-0.030074
-0.023156
-0.004805
-0.040591
-0.040574
-0.010859
-0.02615
-0.008606
-0.026162
-0.052122
-0.055225
-0.05909
-0.01918
-0.009637
0.002323
-0.015723
-0.009901
-0.041206
-0.051514
-0.015329
-0.023045
-0.028561
-0.023455
-0.024541
-0.007181
-0.00691
-0.020353
-0.014851
-0.020748
-0.038223
-0.01622
-0.054848
-0.010674
-0.051026
-0.024238
-0.04442
-0.019026
-0.029316
-0.057047
-0.020294
-0.037652
-0.010587
-0.02539
-0.016974
-0.039652
-0.030926
-0.025977
0.000869
0.019461
-0.020687
0.0185
-0.033816
-0.009311
0.002679
0.004099
0.009106
0.054737
0.05349
0.074348
0.090009
0.092042
0.108116
0.103097
0.089847
0.135679
0.109829
0.105623
0.119457
0.104584
0.110079
0.118713
0.112251
0.082042
0.080667
0.099327
0.079049
0.097444
0.071418
0.061179
0.006511
0.036798
0.014393
-0.001466
0.005402
0.014132
0.001654
-0.026928
-0.000848
-0.028201
-0.014828
-0.025761
-0.025451
-0.008633
-0.041824
0.011428
-0.056703
-0.034905
-0.017621
-0.013841
-0.026194
-0.025412
-0.016957
-0.028458
0.000838
-0.009062
-0.008385
-0.041407
-0.025358
-0.029232
-0.041772
-0.016914
-0.032513
-0.009835
-0.038321
0.017304
-0.018657
0.023284
0.073918
0.117683
0.247498
0.351068
0.565861
0.70707
0.830366
0.905741
0.912737
0.791907
0.628636
0.44334
0.230349
0.116686
-0.046706
-0.08896
-0.121341
-0.132779
-0.090675
-0.050613
-0.047864
-0.009929
-0.005725
-0.003867
-0.026786
-0.036789
-0.027441
-0.01189
-0.004517
-0.052202
-0.011863
-0.007284
-0.013328
0.01694
0.003572
0.022121
-0.002494
0.021442
0.037513
0.035566
-0.003452
0.016286
0.019691
0.04018
0.04962
0.028483
0.051543
0.021116
0.090981
0.063733
0.082242
0.084261
0.119339
0.056741
0.116799
0.124591
0.127781
0.17645
0.138744
0.177777
0.179214
0.204095
0.177553
0.184051
0.224088
0.218487
0.188786
0.21188
0.232712
0.244136
0.219225
0.180457
0.242847
0.211027
0.195298
0.178317
0.240737
0.224323
0.21305
0.236455
0.216564
0.227191
0.165475
0.181886
0.144969
0.16118
0.151832
0.158424
0.138718
0.139862
0.132105
0.149158
0.095803
0.075885
0.088881
0.061959
0.095379
0.056291
0.044294
0.039491
0.054828
0.033405
0.019464
0.056177
0.006381
0.018416
0.025877
-0.018512
0.016551
-0.013715
0.017752
-0.016448
0.011538
0.017391
0.011618
-0.000551
-0.010255
-0.017333
0.018789
-0.020894
-0.027479
0.002748
-0.023898
-0.026938
-0.036031
-0.018897
-0.011809
-0.006023
0.006678
-0.000983
-0.013901
-0.014013
-0.001228
0.012543
-0.008031
-0.018682
-0.028036
-0.036099
0.001992
0.00049
0.00057
-0.012045
0.01569
-0.018252
0.007755
-0.010039
-0.020192
0.001524
-0.001668
-0.002514
-0.007376
-0.009419
0.034355
0.012783
0.00458
-0.006316
0.009902
0.0012
-0.00755
-0.013383
-0.009273
-0.064781
-0.00382
-0.016301
0.021263
-0.006954
-0.028601
-0.007994
-0.025823
0.001631
-0.00155
0.010558
-0.020816
-0.005865
-0.030944
0.006357
0.003173
0.002861
-0.00593
0.00161
0.023126
-0.01078
-0.003049
-0.024991
-0.020966
-0.003473
0.014741
-0.009639
-0.009168
-0.012142
-0.014339
0.0007
-0.031456
0.018656
-0.016274
0.008803
-0.026946
0.00806
0.008224
0.003155
-0.021547
0.000964
-0.024696
-0.007813
0.015421
0.01141
-0.002447
-0.02001
0.009476
-0.001393
-0.042993
0.013519
-0.000159
0.023002
-0.016985
-0.052723
0.011636
0.014518
-0.017928
-0.001221
0.070595
0.020884
0.045739
0.02789
0.009802
0.052938
0.06045
0.067779
0.082997
0.100022
0.102641
0.092272
0.132777
0.09698
0.101985
0.157567
0.15712
0.148923
0.124963
0.135624
0.140151
0.111026
0.119866
0.1371
0.142275
0.099574
0.110878
0.052812
0.089256
0.05337
0.064341
0.045968
0.066563
0.020226
0.041258
0.019738
0.017505
0.013352
-0.0016
0.010909
0.00808
0.012022
0.008031
0.019997
0.021615
-0.014373
0.019868
-0.01732
0.014504
0.015029
-0.030533
0.005574
-0.004478
-0.009633
0.028422
-0.00757
-0.010223
0.005754
0.016841
0.002077
0.025798
0.014665
-0.033496
-0.002546
-0.00043
0.023966
-0.020353
0.095421
0.100691
0.16387
0.288707
0.452453
0.593256
0.760897
0.87777
0.938806
0.91526
0.80918
0.648731
0.441116
0.269118
0.074704
-0.009145
-0.077904
-0.093684
-0.094477
-0.004839
-0.010062
-0.037062
0.002258
-0.005818
-0.009551
-0.013563
0.019492
0.000412
0.031089
0.032657
0.040748
0.002094
0.027603
0.032252
0.014387
0.011339
0.056787
0.034793
0.045349
0.022647
0.019402
0.035381
0.048076
0.036236
0.060716
0.036425
0.053007
0.092015
0.09799
0.087649
0.08434
0.092474
0.112871
0.140088
0.154319
0.13797
0.135555
0.170597
0.160388
0.175221
0.217568
0.217509
0.214037
0.196455
0.230814
0.253224
0.233777
0.270587
0.274492
0.285299
0.264103
0.271531
0.28783
0.270896
0.253337
0.252857
0.262868
0.232087
0.248618
0.266
0.201123
0.261792
0.247351
0.211293
0.221292
0.203111
0.21642
0.202958
0.1509
0.177423
0.153896
0.149896
0.126233
0.161927
0.14054
0.100146
0.081406
0.090809
0.098277
0.087886
0.099639
0.085245
0.082847
0.066069
0.030384
0.047479
0.066085
0.042452
0.049167
0.031442
0.016026
0.030019
0.03575
0.016582
0.022566
0.008531
0.044406
0.017946
0.048532
0.049169
0.01958
0.002378
-0.017436
-0.006726
-0.005231
0.044097
0.021206
0.026014
-0.02105
-0.002699
0.034805
0.023994
0.016195
0.02904
0.048357
0.014984
0.02027
0.022553
0.062215
-0.018557
0.031608
0.017325
0.029676
0.007727
0.018764
0.032538
0.075853
0.034454
0.004733
0.01246
0.012016
-0.012055
0.014415
0.033637
-0.0024
0.039498
0.029495
0.007588
0.018346
0.049753
0.034276
0.021319
0.016971
0.022717
0.012215
-0.01637
0.058363
0.024487
0.028946
0.020825
0.008723
0.018696
-0.00666
0.063204
8.3e-05
0.003815
0.014553
0.045749
0.022911
0.000486
0.045401
0.036067
0.032686
0.035963
0.066264
0.062583
0.010975
0.052651
0.030403
0.032574
-0.006786
0.020692
0.009213
0.038833
0.043292
-0.013244
0.023784
0.044459
0.020991
0.037561
0.030848
0.030769
0.019833
0.002924
0.004751
0.03784
0.025579
0.022926
0.018026
0.020462
0.045185
0.020803
0.003343
0.0417
0.025697
0.031315
0.061411
0.03426
0.042496
0.019313
0.040479
0.060027
0.02646
0.064287
0.069524
0.076294
0.102806
0.09939
0.129718
0.095297
0.125805
0.134916
0.123773
0.169162
0.20175
0.166322
0.180978
0.177021
0.164492
0.14456
0.162789
0.146831
0.19732
0.157889
0.145836
0.159219
0.113504
0.109985
0.114988
0.122383
0.103343
0.089751
0.078313
0.076489
0.066098
0.037936
0.052123
0.02756
0.044657
0.031507
0.083404
0.035014
0.008916
0.030591
0.041458
0.061567
0.020357
0.002148
0.04511
0.005414
0.022333
0.025511
0.028892
0.04257
0.017895
0.02532
0.030045
0.033054
0.032187
0.038347
0.04578
0.037803
0.039178
0.003124
0.033796
0.044295
0.054625
0.040998
0.064994
0.109352
0.201135
0.318334
0.436917
0.628565
0.77967
0.903976
0.964147
0.95923
0.847851
0.717386
0.464575
0.295178
0.113029
-0.007926
-0.054471
-0.068878
-0.006483
-0.037194
-0.028782
0.015934
-0.013993
0.028474
0.033829
0.049593
0.053907
0.028238
0.035544
0.02553
0.020229
0.047498
0.020573
0.037824
0.029398
0.059484
0.084572
0.031573
0.024823
0.059448
0.065857
0.073769
0.066453
0.075936
0.091641
0.109656
0.062064
0.097361
0.115009
0.102193
0.157808
0.123488
0.142774
0.162389
0.150825
0.137488
0.172378
0.208035
0.192826
0.192937
0.233939
0.220167
0.225442
0.245399
0.264165
0.300168
0.278544
0.290171
0.26505
0.259726
0.282473
0.285531
0.265505
0.282131
0.29189
0.289661
0.289795
0.282601
0.264022
0.25887
0.240753
0.28798
0.24899
0.237042
0.216238
0.277271
0.196269
0.198796
0.204774
0.19879
0.195923
0.201977
0.169442
0.132402
0.138105
0.139877
0.163496
0.093396
0.132875
0.107541
0.112873
0.089868
0.070877
0.094315
0.087752
0.089047
0.067277
0.053061
0.032495
0.072332
0.062558
0.03518
0.040776
0.040222
0.020311
0.030873
0.023954
0.035877
0.029092
0.012322
0.077351
0.062929
0.02589
0.044422
0.046707
0.060364
0.023972
0.058189
0.028529
0.014236
0.051232
0.061369
0.084673
0.016466
0.050623
0.030658
0.052135
0.011572
0.015323
0.024103
0.039509
0.02657
0.049996
0.056643
0.048977
0.067351
0.045725
0.016365
0.062838
0.027433
0.054743
0.066711
0.046633
0.011511
0.021942
0.062308
0.035482
0.039987
0.052241
0.051143
0.043655
0.034908
0.033062
0.054159
0.048707
0.034137
0.058272
0.036497
0.023515
0.025208
0.021277
0.034015
0.06115
0.024475
0.042383
0.027193
0.034351
0.011878
0.035112
0.035617
0.048851
0.043166
0.017598
0.058705
0.042996
0.042802
0.039086
0.029952
0.043212
0.047871
0.007886
0.029651
0.034779
0.043997
0.060884
0.025531
0.030476
0.030231
0.025047
0.033241
0.053382
0.020555
0.04724
0.008921
0.029467
0.033655
0.069748
0.034669
7e-06
0.003664
0.04027
0.050719
0.046443
0.042714
0.060631
0.03001
0.055843
0.01037
0.023469
0.007243
0.034834
0.038959
0.041856
0.040926
0.023126
0.036408
0.012888
0.064389
0.034394
0.031068
0.068478
0.017524
0.019632
0.020168
0.038686
0.047684
0.053235
0.086223
-0.000556
0.050897
0.029917
0.029395
0.0288
0.023603
0.070286
0.055131
0.040391
0.064295
0.012755
0.016031
0.000783
0.027399
0.042902
0.041845
0.042683
0.014598
0.054455
0.044312
0.053194
0.00593
0.045607
